#Acq. time (s)=	1
#Accumulations=	4
#Range (cm-¹)=	50...1000
#Windows=	4
#Auto scanning=	Off
#Autofocus=	At limit pixels
#SWIFT=	Off
#Macrospot=	Off
#AutoExposure=	Off
#Spike filter=	Single accum. (Size=3)
#Delay time (s)=	0
#Binning=	1
#Readout mode=	Signal
#DeNoise=	Off
#ICS correction=	Off
#Dark correction=	Off
#Inst. Process=	Off
#Detector Gain=	High Sensitivity
#Detector ADC=	45 kHz       
#Detector temperature (°C)=	-60.1
#Instrument=	LabRAM Soleil
#Detector=	Syncerity
#Objective=	100x
#Grating=	2400 (400nm)
#ND Filter=	20% (4.1mW)
#Laser=	638nm_Edge
#Hole (µm)=	200 
#Microscope=	Standard
#Laser mode=	High density
#StageXY=	QScan
#StageZ=	Marzhauser
#X (µm)=	2532.2
#Y (µm)=	151.84
#Z (µm)=	-1.15
#Full time(mm:ss)=	12:46
#Project=	
#Sample=	M6_mapa_rango_completo
#Site=	
#Title=	mapa_rango_competo_J13057_Si_wafer638nm_Edge_2400 (400nm)_200 µm_100x_20% (4_1mW)_1 s_4 a
#Remark=	
#Date=	03.07.2023 16:53
#Acquired=	03.07.2023 16:53:48
#AxisType[0]=Intens
#AxisUnit[0]=Cnt
#AxisType[1]=Spectr
#AxisUnit[1]=1/cm
#AxisType[2]=X
#AxisUnit[2]=
#AxisType[3]=Y
#AxisUnit[3]=
50.3087	218
50.7111	225
51.115	238
51.5173	240.5
51.9211	226
52.3234	237
52.7257	240.5
53.1294	240
53.5316	237
53.9339	232
54.3375	238
54.7397	232
55.1419	227
55.544	240.5
55.9461	236.5
56.3497	237.5
56.7518	230
57.1538	228
57.5558	230
57.9578	233
58.3598	232
58.7618	219
59.1622	240
59.5642	220
59.9661	246.5
60.3679	252.5
60.7698	237.5
61.1702	234
61.572	239
61.9738	235
62.3741	221
62.7758	231.5
63.1761	216.5
63.5778	219.5
63.978	221
64.3797	224.5
64.7798	229.5
65.18	228.5
65.5816	222
65.9817	237
66.3818	222.5
66.7819	218
67.1834	228
67.5834	234.5
67.9834	233.5
68.3834	235.5
68.7834	240
69.1833	234.5
69.5832	233.5
69.9831	226
70.383	233
70.7829	219
71.1827	242
71.5825	230
71.9808	234.5
72.3806	222.5
72.7804	224
73.1801	240.5
73.5783	238
73.978	232.5
74.3762	236
74.7759	233
75.1755	219
75.5736	238.5
75.9717	238
76.3713	223
76.7694	242
77.1689	232
77.5669	216
77.965	231.5
78.3629	224
78.7624	231.5
79.1603	233
79.5583	227.5
79.9562	237.5
80.354	236
80.7519	231.5
81.1498	223
81.5476	234.5
81.9454	225.5
82.3432	236
82.7409	221
83.1387	217.5
83.5364	236.5
83.9326	222
84.3303	241.5
84.728	229.5
85.1241	224.5
85.5217	221.5
85.9193	225.5
86.3154	236.5
86.713	222.5
87.109	226.5
87.5066	224.5
87.9026	226
88.3001	231.5
88.696	234.5
89.092	219.5
89.4894	241
89.8853	244.5
90.2812	215.5
90.6771	220.5
91.073	231.5
91.4703	237
91.8661	243
92.2619	223
92.6577	227.5
93.0534	229.5
93.4492	224.5
93.8449	227.5
94.2391	227.5
94.6348	229
95.0304	244
95.426	230.5
95.8216	230
96.2158	224.5
96.6113	235
97.0069	228.5
97.4009	223.5
97.7965	233.5
98.1905	225
98.5859	224
98.9799	232.5
99.3754	226
99.7693	233.5
100.165	221.5
100.559	223.5
100.952	220.5
101.346	246.5
101.742	232
102.135	222.5
102.529	228.5
102.923	217.5
103.317	220
103.71	232
104.104	215
104.498	216
104.892	224
105.285	220.5
105.679	241
106.072	220.5
106.466	238.5
106.86	237
107.252	220
107.645	233.5
108.039	219.5
108.431	222.5
108.824	225
109.218	224.5
109.61	213
110.003	226
110.395	236
110.788	214.5
111.18	225
111.572	220.5
111.965	226.5
112.357	228
112.749	221.5
113.141	224
113.534	222.5
113.926	223.5
114.317	224.5
114.709	225.5
115.101	228.5
115.493	217
115.884	223.5
116.276	225.5
116.667	226.5
117.059	227
117.451	228.5
117.842	226
118.232	221.5
118.624	224.5
119.015	222.5
119.407	227
119.797	221.5
120.188	222.5
120.578	234.5
120.969	226
121.359	226
121.75	212.5
122.14	230
122.532	215.5
122.921	238
123.311	228.5
123.702	220
124.092	228
124.482	220.5
124.872	227
125.263	225
125.653	224
126.042	214.5
126.432	220
126.821	218
127.211	223
127.601	211
127.99	225.5
128.38	223.5
128.768	222.5
129.157	224
129.547	213
129.936	221.5
130.324	215
130.714	222
131.103	227
131.491	218
131.88	228.5
132.268	227.5
132.657	235
133.045	231
133.434	228.5
133.822	219.5
134.212	221
134.599	217.5
134.987	219
135.375	217
135.764	217.5
136.152	221
136.539	226
136.927	220.5
137.314	222.5
137.702	211.5
138.09	224
138.477	218
138.865	213.5
139.252	216
139.64	213.5
140.027	215
140.413	227.5
140.801	217.5
141.188	203.5
141.575	218
141.961	220
142.349	224.5
142.735	222
143.122	232.5
143.509	222
143.895	222.5
144.281	205.5
144.668	208
145.054	213
145.441	213
145.827	218.5
146.212	221.5
146.598	213
146.985	231
147.371	221
147.757	223
148.142	212
148.528	222
148.913	209.5
149.299	236.5
149.684	210.5
150.07	223.5
150.455	223
150.841	221.5
151.225	214
151.61	228
151.996	214
152.3	215.5
152.765	223.5
153.15	215.5
153.536	219.5
153.919	215.5
154.305	213.5
154.689	220
155.074	221
155.458	215
155.841	220
156.227	222.5
156.61	211
156.994	220
157.379	204
157.763	224
158.146	218.5
158.53	204
158.914	220.5
159.297	203.5
159.681	197.5
160.064	217.5
160.448	211.5
160.831	223.5
161.215	220
161.598	213
161.982	226
162.365	215.5
162.747	211.5
163.13	214.5
163.514	211.5
163.896	217
164.279	222.5
164.662	223.5
165.044	218.5
165.427	219.5
165.809	222
166.193	221
166.574	208.5
166.956	210
167.339	202
167.721	220
168.103	215
168.484	224
168.867	212
169.249	214.5
169.631	211.5
170.012	218.5
170.394	211
170.775	220.5
171.157	207.5
171.538	224.5
171.92	214.5
172.301	219
172.681	217
173.063	214.5
173.444	198.5
173.825	218
174.205	217
174.587	212.5
174.968	195.5
175.348	207.5
175.729	211
176.109	203
176.49	220.5
176.87	225
177.251	218.5
177.631	224.5
178.011	218.5
178.392	216
178.772	203.5
179.151	214
179.531	225.5
179.911	214.5
180.29	222
180.671	211.5
181.051	210.5
181.43	225
181.81	213
182.188	212.5
182.567	209.5
182.947	207.5
183.326	214
183.706	211
184.085	219
184.463	216
184.843	216.5
185.222	221
185.6	218
185.979	213.5
186.357	225
186.736	202.5
187.114	217
187.493	231
187.871	216.5
188.249	205.5
188.628	217.5
189.006	215
189.383	223
189.763	210
190.14	210
190.518	220
190.896	220.5
191.273	216.5
191.651	218.5
192.028	210
192.406	210
192.783	223.5
193.161	218
193.538	206
193.916	208
194.292	211.5
194.669	229
195.047	215
195.423	204
195.8	209
196.177	203
196.553	209
196.931	217.5
197.307	211
197.684	226
198.06	222
198.437	211.5
198.813	217
199.188	216
199.566	213.5
199.941	205
200.317	208.5
200.693	206
201.068	213
201.444	214
201.82	215
202.195	205.5
202.571	202.5
202.947	223
203.322	201.5
203.698	209.5
204.073	196.5
204.449	219.5
204.824	206
205.198	212
205.574	198.5
205.949	207
206.323	201
206.698	216
207.074	219.5
207.448	216.5
207.823	211.5
208.197	210
208.571	219
208.946	206.5
209.32	218.5
209.694	199.5
210.069	223.5
210.443	214
210.816	211
211.19	202.5
211.564	209.5
211.937	206
212.311	215.5
212.685	225
213.058	210
213.432	217.5
213.806	203
214.179	208.5
214.553	228.5
214.926	216
215.3	216
215.672	199.5
216.045	212
216.419	210.5
216.791	199
217.164	212
217.536	214.5
217.91	203.5
218.281	203
218.655	213
219.027	200.5
219.399	210
219.772	225
220.144	207
220.515	198
220.887	215
221.26	203.5
221.632	212
222.004	201.5
222.376	214
222.747	199.5
223.119	203.5
223.491	215
223.862	214.5
224.234	205
224.606	211.5
224.976	220
225.347	206
225.719	206
226.09	214.5
226.461	209
226.832	203.5
227.202	208.5
227.574	211.5
227.945	210
228.315	218.5
228.685	215.5
229.056	208.5
229.426	216.5
229.798	207.5
230.168	218
230.537	211.5
230.907	205.5
231.277	213
231.648	205
232.018	202.5
232.388	210.5
232.758	210.5
233.127	218
233.497	219
233.867	212.5
234.237	199.5
234.606	219.5
234.974	196.5
235.344	212
235.714	206
236.083	206.5
236.451	204.5
236.821	210.5
237.189	216
237.559	201.5
237.928	208
238.296	213.5
238.664	208
239.034	206.5
239.402	200.5
239.771	212.5
240.139	198.5
240.507	203
240.875	206
241.244	209.5
241.612	214
241.98	208
242.348	196.5
242.716	189
243.084	194
243.451	193.5
243.819	200
244.187	210
244.555	195.5
244.921	208
245.289	198.5
245.656	203
246.024	210.5
246.39	204
246.758	192.5
247.126	207
247.492	208.5
247.859	205
248.225	198
248.593	218
248.959	217
249.325	210
249.693	200.5
250.059	202.5
250.425	210.5
250.792	204
251.158	202.5
251.524	201.5
251.89	209.5
252.256	210.5
252.622	207.5
252.988	210.5
253.354	206.5
253.719	207
254.085	206
254.451	209
254.817	211
255.183	203.5
255.547	205
255.913	200
256.278	203
256.643	196
257.008	195.5
257.373	212.5
257.738	206.5
258.103	198.5
258.468	207.5
258.832	195.5
259.198	199.5
259.562	197.5
259.926	194.5
260.292	199.5
260.656	208
261.02	204
261.384	192.5
261.748	204.5
262.112	193.5
262.476	208.5
262.84	205
263.204	187.5
263.568	183.5
263.932	210
264.296	213
264.66	211.5
265.023	197.5
265.386	205.5
265.75	203.5
266.113	204.5
266.476	220
266.84	199.5
267.203	196.5
267.566	205.5
267.929	211.5
268.292	207.5
268.655	195
269.018	202
269.38	218.5
269.743	218
270.106	207.5
270.468	206.5
270.83	197
271.192	205
271.554	210.5
271.918	198
272.28	193
272.642	200.5
273.004	193
273.365	200
273.727	208.5
274.089	210
274.451	197
274.813	201
275.174	202
275.535	199
275.897	209
276.257	202
276.619	207.5
276.981	213
277.341	193
277.703	203.5
278.064	206.5
278.424	204
278.786	207.5
279.146	204
279.506	205
279.868	195
280.228	197.5
280.589	208
280.949	195.5
281.309	196
281.669	211
282.029	201
282.39	193.5
282.75	192.5
283.11	196
283.47	199
283.83	201
284.19	206
284.55	195
284.909	194
285.269	199
285.629	193
285.987	201.5
286.347	205
286.706	192
287.066	200.5
287.424	198.5
287.784	206.5
288.143	189.5
288.501	202.5
288.861	192
289.219	204.5
289.578	197.5
289.936	202.5
290.296	197.5
290.654	204
291.012	203
291.371	212.5
291.729	204
292.087	214
292.446	213.5
292.804	201
293.161	210
293.519	202
293.877	200.5
294.235	212
294.593	212.5
294.95	195.5
295.308	215
295.665	206
296.023	197
296.381	210
296.737	207.5
297.094	216
297.452	214.5
297.809	212.5
298.167	221.5
298.523	210
298.88	215.5
299.236	224
299.592	223
299.95	226
300.307	230
300.663	226
301.02	220.5
301.376	234.5
301.732	230
302.089	231.5
302.445	247
302.8	242
303.156	226.5
303.513	226
303.869	234
304.224	233
304.58	232.5
304.936	222
305.291	227
305.647	224.5
306.002	223.5
306.358	225.5
306.713	203.5
307.067	222.5
307.423	212.5
307.778	213.5
308.133	216
308.489	212.5
308.843	196.5
309.198	221.5
309.553	218
309.907	216.5
310.262	207
310.616	202
310.971	202
311.325	205.006
311.68	201.024
312.034	198.54
312.388	212.504
312.741	208.896
313.096	205.465
313.45	200.109
313.803	203.06
314.158	196.749
314.512	196.302
314.865	194.333
315.219	198.588
315.572	200.528
315.926	196.842
316.279	194.052
316.632	204.467
316.986	184.78
317.339	206.401
317.691	185.063
318.044	199.627
318.398	198.097
318.751	192.681
319.104	189.352
319.456	195.768
319.809	194.84
320.162	195.624
320.514	190.018
320.867	189.247
321.218	196.741
321.571	193.679
321.923	182.616
322.276	192.632
322.627	193.336
322.979	184.587
323.332	192.914
323.683	188.263
324.035	198.088
324.386	181.183
324.739	175.776
325.09	190.685
325.442	179.819
325.793	189.058
326.144	172.445
326.496	177.893
326.847	189.301
327.198	182.524
327.549	181.854
327.9	185.577
328.252	183.147
328.603	189.175
328.954	187.627
329.304	179.096
329.654	182.067
330.005	177.297
330.355	182.083
330.706	185.054
331.057	175.633
331.407	183.584
331.757	180.36
332.107	180.827
332.458	179.053
332.807	182.053
333.158	186.526
333.507	178.841
333.857	182.174
334.207	175.514
334.557	173.298
334.906	172.206
335.255	171.905
335.606	183.569
335.955	180.711
336.304	180.629
336.653	179.84
337.002	171.771
337.351	181.346
337.7	181.077
338.049	175.213
338.398	177.409
338.747	179.661
339.095	164.357
339.444	172.045
339.793	170.169
340.142	173.209
340.489	178.844
340.838	171.459
341.187	177.628
341.534	176.616
341.883	164.678
342.232	173.149
342.579	171.482
342.928	171.453
343.275	171.376
343.622	177.441
343.971	169.142
344.318	171.163
344.666	180.184
345.014	172.913
345.361	174.92
345.708	178.179
346.056	176.444
346.403	167.321
346.75	173.945
347.097	180.139
347.444	163.675
347.791	175.542
348.138	163.581
348.485	168.481
348.832	162.882
349.179	169.43
349.525	166.224
349.872	163.584
350.219	168.91
350.564	166.406
350.911	165.78
351.257	163.614
351.604	167.985
351.949	173.014
352.296	168.479
352.641	164.059
352.988	163.373
353.333	166.712
353.679	163.463
354.024	164.09
354.371	162.065
354.716	165.24
355.062	163.544
355.407	167.867
355.752	163.037
356.097	161.145
356.443	163.506
356.788	169.287
357.133	163.491
357.478	165.74
357.822	156.897
358.167	161.746
358.512	165.9
358.857	160.274
359.201	164.532
359.546	170.296
359.89	161.8
360.235	161.179
360.579	159.58
360.924	156.746
361.267	159.55
361.612	163.141
361.956	154.951
362.299	155.709
362.644	167.545
362.988	155.462
363.331	167.475
363.675	156.709
364.018	159.149
364.362	156.053
364.705	151.859
365.049	163.583
365.392	158.04
365.735	163.301
366.079	152.828
366.422	157.784
366.766	157.456
367.109	156.22
367.451	157.616
367.794	160.733
368.137	151.744
368.479	153.484
368.822	156.918
369.164	155.702
369.507	156.199
369.849	163.463
370.192	164.224
370.534	161.416
370.876	154.409
371.219	156.454
371.561	157.222
371.902	160.36
372.244	160.491
372.586	159.883
372.927	162.522
373.27	158.541
373.612	156.048
373.954	153.023
374.294	154.657
374.635	151.701
374.977	156.4
375.318	157.72
375.66	149.026
376.001	149.408
376.342	155.639
376.683	154.857
377.024	155.051
377.364	154.98
377.706	146.809
378.046	158.358
378.387	159.344
378.727	155.695
379.067	154.888
379.409	151.661
379.748	151.513
380.088	154.096
380.43	147.182
380.77	157.272
381.109	162.86
381.449	158.971
381.789	152.935
382.129	147.629
382.469	161.844
382.808	149.275
383.148	143.987
383.488	149.786
383.828	152.605
384.167	154.905
384.506	152.466
384.845	146.321
385.185	148.203
385.523	146.159
385.863	153.697
386.202	145.958
386.541	151.222
386.88	155.373
387.218	148.435
387.556	146.691
387.896	148.537
388.234	148.392
388.572	155.292
388.912	145.749
389.25	142.085
389.588	151.101
389.926	149.663
390.264	144.068
390.602	146.038
390.94	152.901
391.278	153.486
391.616	147.674
391.954	147.168
392.292	140.829
392.63	152.411
392.967	147.221
393.304	150.635
393.642	145.337
393.98	143.035
394.316	141.107
394.654	149.733
394.99	149.614
395.328	142.787
395.664	142.069
396.002	146.575
396.338	147.421
396.676	145.496
397.012	147.191
397.349	141.114
397.685	147.469
398.023	138.939
398.359	142.72
398.695	152.242
399.031	147.46
399.367	146.402
399.704	147.043
400.04	142.198
400.376	140.208
400.712	138.945
401.047	139.522
401.383	142.936
401.719	143.992
402.055	149.062
402.39	151.165
402.726	147.651
403.062	149.358
403.396	148.831
403.732	145.924
404.067	147.657
404.403	145.487
404.737	135.759
405.072	142.865
405.408	142.805
405.742	137.799
406.077	138.741
406.411	144.811
406.747	147.936
407.082	144.099
407.416	143.567
407.75	146.012
408.085	134.642
408.419	132.599
408.753	135.816
409.086	141.463
409.421	142.796
409.755	150.544
410.089	143.719
410.424	142.974
410.756	141.278
411.091	135.992
411.425	135.586
411.758	138.436
412.092	143.093
412.425	142.954
412.759	142.237
413.092	140.933
413.424	141.189
413.758	136.585
414.091	139.582
414.424	137.949
414.756	140.637
415.091	135.109
415.423	132.607
415.756	134.978
416.088	140.293
416.421	140.131
416.754	136.859
417.086	136.686
417.419	139.836
417.75	148.056
418.082	140.157
418.415	144.256
418.747	134.27
419.078	141.173
419.411	128.806
419.743	140.436
419.802	143
420.157	142
420.512	135.5
420.867	153.5
421.222	134.5
421.576	135
421.931	140.5
422.286	137.5
422.64	126.5
422.995	146.5
423.35	127
423.703	146
424.058	142
424.412	137.5
424.767	131
425.12	140
425.474	141
425.829	136
426.182	138
426.535	139.5
426.889	136.5
427.244	140
427.597	139
427.951	131.5
428.304	136
428.657	136
429.011	131.5
429.364	132
429.717	136
430.07	128
430.422	133.5
430.776	134.5
431.129	138
431.482	131.5
431.834	133
432.187	136
432.54	138
432.892	135.5
433.245	129
433.597	129
433.95	135
434.301	137
434.655	133
435.006	133
435.359	127.5
435.711	134.5
436.062	142
436.414	114.5
436.767	133.5
437.118	138
437.47	132
437.822	126.5
438.173	121
438.524	121
438.876	116
439.227	127.5
439.579	128
439.93	121
440.28	128.5
440.632	125.5
440.983	113
441.334	130
441.684	132
442.035	120
442.387	114
442.737	128.5
443.088	122.5
443.438	122
443.789	110
444.139	122
444.49	120
444.84	118.5
445.189	121.5
445.539	124
445.89	120.5
446.24	113.5
446.59	118
446.939	116.5
447.289	112
447.639	118
447.988	118.5
448.338	107.5
448.688	115
449.037	115
449.387	113
449.736	116.5
450.086	126
450.435	115.5
450.783	112.5
451.133	120
451.482	104
451.83	110
452.18	113
452.528	109.5
452.877	110
453.225	103
453.574	117
453.922	112.5
454.272	110.5
454.62	120.5
454.967	105.5
455.315	105
455.665	110
456.012	110
456.36	100
456.708	106
457.056	108
457.404	101
457.751	110
458.099	100.5
458.447	101
458.795	105
459.142	113.5
459.49	107
459.836	111
460.184	103
460.532	101.5
460.878	100.5
461.225	93.5
461.573	98.5
461.919	105
462.267	97
462.613	107.5
462.96	99.5
463.306	106
463.652	107
464	97
464.346	93.5
464.692	96.5
465.039	103
465.385	97.5
465.731	88.5
466.077	94.5
466.423	102
466.769	98
467.115	102
467.461	102
467.807	100
468.153	100
468.499	89.5
468.845	95.5
469.189	100
469.535	91
469.881	90
470.225	94
470.571	94.5
470.916	94
471.261	100
471.606	105.5
471.951	84
472.296	86
472.641	93.5
472.985	86.5
473.331	87
473.675	102.5
474.019	94
474.365	93.5
474.709	82.5
475.053	92.5
475.397	90.5
475.741	92
476.085	90.5
476.429	86.5
476.773	102
477.117	87
477.461	99.5
477.806	84
478.148	96.5
478.492	94
478.836	95
479.18	90
479.523	92
479.867	96
480.21	84
480.553	88
480.897	89.5
481.239	86
481.583	76
481.926	90
482.268	94
482.612	80.5
482.954	88.5
483.297	85.5
483.639	90
483.983	88
484.325	89
484.667	82.5
485.01	84.5
485.352	87
485.694	93
486.036	74.5
486.379	84.5
486.721	78
487.062	75
487.404	84.5
487.746	75.5
488.088	83.5
488.429	89.5
488.771	71
489.113	77
489.454	79.5
489.796	78.5
490.136	82
490.478	87
490.819	86
491.161	78.5
491.502	73.5
491.842	79.5
492.184	75.5
492.525	82.5
492.865	70
493.206	78
493.546	75.5
493.887	71.5
494.229	78
494.569	80
494.91	72
495.249	72
495.589	74
495.929	72
496.27	75.5
496.61	71.5
496.95	70
497.289	72.5
497.63	77.5
497.97	84.5
498.309	70
498.649	78
498.988	72
499.328	73
499.667	70.5
500.007	72.5
500.346	74
500.685	78
501.025	77
501.364	75.5
501.702	70.5
502.041	73
502.381	82.5
502.72	86.5
503.059	79.5
503.397	81
503.736	79.5
504.074	83
504.413	90
504.752	89
505.089	87.5
505.427	91.5
505.766	93
506.104	98.5
506.443	97.5
506.78	105.5
507.119	103
507.456	110.5
507.794	120.5
508.131	124
508.47	137
508.807	132
509.145	142
509.482	142
509.819	152
510.157	163.5
510.494	169.5
510.831	179.5
511.168	191.5
511.505	192
511.843	212.5
512.18	229
512.517	242
512.854	267.5
513.19	276
513.527	286.5
513.863	297
514.199	327
514.536	341
514.873	366
515.208	364
515.545	408.5
515.882	425
516.217	432
516.554	470
516.89	457.5
517.225	464.5
517.561	507
517.897	508
518.232	491.5
518.569	529
518.904	521.5
519.239	511.5
519.574	507.5
519.911	519
520.246	539.5
520.581	516.5
520.916	510.5
521.251	516.5
521.586	501.5
521.921	484
522.256	491
522.591	469
522.926	473.5
523.26	481.5
523.595	464.5
523.93	441
524.265	444
524.598	446.5
524.933	430
525.266	438
525.601	424
525.935	394.5
526.27	405.5
526.603	420
526.938	419
527.271	398
527.605	403
527.939	384
528.273	373
528.606	378
528.939	361
529.273	355
529.606	361.5
529.94	366.5
530.274	357
530.606	360.5
530.939	348.5
531.272	330.5
531.605	345.5
531.938	340
532.272	313
532.603	326.5
532.936	324.5
533.27	312.5
533.601	318
533.934	306
534.267	306
534.599	305
534.932	307
535.264	311.5
535.595	290.5
535.928	295.5
536.26	286.5
536.592	285.5
536.924	294
537.256	279.5
537.588	284.5
537.919	264
538.251	280
538.582	277.5
538.914	279
539.245	266.5
539.576	264.5
539.908	262.5
540.239	266
540.571	260.5
540.902	266
541.232	251
541.563	264
541.895	253
542.225	258.5
542.556	251.5
542.886	249.5
543.217	265.5
543.547	252
543.878	244
544.208	241.5
544.539	241
544.869	246.5
545.199	235
545.53	235.5
545.86	232
546.19	250
546.519	248
546.849	239.5
547.179	223
547.509	218.5
547.838	224
548.168	224
548.498	231
548.827	215.5
549.157	224.5
549.485	226
549.815	217
550.144	224.5
550.474	209
550.802	218.5
551.132	221.5
551.46	203
551.789	219.493
552.117	227.96
552.447	221.434
552.775	208.021
553.104	202.706
553.432	211.222
553.76	206.669
554.088	217.51
554.418	211.274
554.746	196.121
555.074	216.506
555.402	206.716
555.73	207.666
556.058	203.008
556.385	206.653
556.713	207.394
557.041	208.869
557.369	206.063
557.697	200.732
558.023	204.831
558.351	192.703
558.679	202.754
559.006	197.548
559.333	198.083
559.661	203.765
559.987	215.682
560.315	195.447
560.642	209.141
560.969	187.628
561.296	184.193
561.622	202.135
561.95	184.471
562.276	194.026
562.602	195.865
562.928	177.603
563.256	189.739
563.582	193.708
563.908	195.601
564.235	196.73
564.561	181.51
564.887	189.277
565.213	200.141
565.539	186.58
565.865	195.136
566.19	187.907
566.516	177.655
566.842	187.26
567.168	188.076
567.493	180.405
567.819	184.896
568.143	176.234
568.469	179.019
568.794	182.746
569.12	183.555
569.445	182.264
569.771	170.49
570.095	170.349
570.42	178.418
570.745	173.657
571.07	173.615
571.394	177.647
571.719	171.968
572.043	180.557
572.368	176.622
572.692	170.577
573.017	180.725
573.341	180.699
573.665	182.853
573.99	177.331
574.314	186.47
574.638	173.606
574.963	180.561
575.286	167.016
575.61	170.708
575.934	164.818
576.257	166.001
576.581	171.921
576.904	170.375
577.229	177.997
577.551	172.873
577.876	165.8
578.198	172.256
578.521	180.673
578.845	170.787
579.168	175.936
579.491	168.136
579.814	170.621
580.138	172.399
580.46	166.762
580.783	172.819
581.106	169.214
581.428	173.624
581.751	163.198
582.074	169.363
582.395	158.333
582.717	167.964
583.04	170.558
583.363	164.221
583.684	171.623
584.006	164.701
584.329	171.053
584.65	161.581
584.973	176.067
585.294	164.817
585.616	163.212
585.937	163.735
586.26	166.69
586.581	166.384
586.902	163.237
587.224	163.825
587.545	160.432
587.866	157.545
588.187	158.37
588.508	154.077
588.83	169.503
589.151	162.308
589.472	161.25
589.793	160.874
590.113	164.377
590.434	158.919
590.755	165.182
591.075	164.178
591.396	160.464
591.717	162.037
592.036	153.456
592.357	152.107
592.677	160.264
592.997	152.306
593.318	155.254
593.638	159.37
593.958	152.911
594.278	160.916
594.597	153.13
594.918	157.069
595.237	152.504
595.556	156.611
595.875	157.151
596.196	155.902
596.515	153.428
596.835	151.745
597.154	150.828
597.473	147.943
597.792	152.752
598.111	149.057
598.431	155.478
598.75	152.63
599.067	152.493
599.387	154.297
599.706	154.511
600.025	151.209
600.342	147.598
600.661	154.939
600.981	151.131
601.298	150.28
601.617	143.833
601.935	144.666
602.254	153.157
602.571	150.283
602.889	144.495
603.208	151.844
603.526	149.852
603.843	147.954
604.161	150.005
604.479	149.033
604.797	148.675
605.114	147.62
605.432	142.651
605.749	140.52
606.067	138.75
606.384	149.324
606.7	143.032
607.018	149.907
607.335	146.297
607.652	144.391
607.97	138.419
608.286	143.629
608.603	141.887
608.92	141.595
609.236	144.418
609.554	142.962
609.87	149.451
610.187	150.878
610.503	150.607
610.819	143.451
611.136	143.871
611.452	142.378
611.768	140.708
612.083	147.025
612.401	148.232
612.716	150.767
613.032	154.121
613.348	148.42
613.664	146.171
613.979	154.524
614.295	158.993
614.611	149.361
614.925	162.316
615.241	163.946
615.556	154.883
615.872	158.904
616.188	159.054
616.502	160.911
616.818	156.805
617.132	165.9
617.447	174.472
617.761	168.602
618.077	166.966
618.391	162.986
618.707	167.23
619.021	166.177
619.335	164.497
619.649	155.149
619.965	164.396
620.279	162.833
620.593	160.195
620.907	153.133
621.221	156.766
621.535	162.328
621.849	157.375
622.163	161.361
622.477	160.979
622.791	163.68
623.105	161.662
623.417	163.212
623.731	156.941
624.045	157.084
624.359	162.593
624.672	166.076
624.986	164.613
625.298	163.097
625.612	160.35
625.924	161.538
626.238	166.871
626.551	163.115
626.863	157.636
627.177	153.455
627.489	156.635
627.802	156.062
628.114	152.133
628.428	150.422
628.74	152.564
629.052	147.246
629.365	156.204
629.677	155.515
629.989	158.288
630.302	152.227
630.613	151.522
630.925	152.77
631.237	156.997
631.549	163.978
631.86	154.921
632.172	151.126
632.484	153.193
632.795	151.507
633.107	153.873
633.418	155.278
633.73	148.161
634.041	150.179
634.353	150.379
634.664	155.296
634.975	156.673
635.287	156.711
635.597	154.956
635.908	159.436
636.219	158.433
636.529	155.922
636.84	159.636
637.151	155.952
637.461	156.585
637.772	153.391
638.082	163.419
638.393	159.967
638.704	155.528
639.014	154.77
639.323	154.484
639.634	159.13
639.944	160.078
640.253	159.102
640.564	154.971
640.873	151.713
641.183	158.32
641.492	156.844
641.803	149.89
642.112	154.229
642.421	149.029
642.731	152.263
643.04	156.397
643.349	156.781
643.658	158.023
643.969	157.025
644.278	156.443
644.586	157.446
644.895	158.319
645.204	157.183
645.513	154.223
645.822	151.209
646.13	150.058
646.438	148.338
646.747	151.393
647.056	154.84
647.364	163.543
647.672	160.936
647.981	155.148
648.289	152.714
648.597	154.39
648.905	157.845
649.213	156.495
649.521	151.374
649.829	151.756
650.137	156.229
650.444	150.158
650.753	147.365
651.06	159.874
651.367	156.027
651.675	158.132
651.982	155.089
652.289	152.815
652.596	163.426
652.904	160.581
653.211	153.934
653.518	156.128
653.825	162.929
654.132	162.773
654.438	154.959
654.745	149.524
655.003	151.5
655.332	149.5
655.661	152
655.991	147.5
656.321	157
656.65	149.5
656.979	148.5
657.308	147.5
657.637	157
657.966	157.5
658.295	142
658.624	153
658.953	151.5
659.282	153
659.611	152
659.938	151
660.267	144
660.596	147
660.925	147
661.253	152.5
661.582	152
661.909	154
662.238	151.5
662.565	146.5
662.894	143.5
663.222	147.5
663.55	152
663.878	156
664.205	149
664.534	152.5
664.861	152.5
665.189	150.5
665.516	145.5
665.843	145.5
666.171	153.5
666.498	141.5
666.825	153.5
667.152	158
667.48	144
667.807	153.5
668.134	147
668.461	140
668.788	159.5
669.114	149.5
669.441	146.5
669.768	149
670.094	151.5
670.421	150.5
670.748	144.5
671.074	140.5
671.401	151.5
671.727	146
672.053	152
672.38	146
672.705	144.5
673.031	138
673.358	143.5
673.683	151
674.009	146.5
674.335	138.5
674.66	143
674.987	147
675.313	150.5
675.638	159
675.964	151
676.288	150
676.613	154
676.939	150.5
677.264	149.5
677.589	141
677.915	146.5
678.239	141
678.564	147.5
678.89	163
679.214	141
679.539	145
679.863	142.5
680.188	146
680.512	138.5
680.838	149.5
681.161	132.5
681.485	140.5
681.811	140
682.134	142.5
682.458	140
682.782	137
683.106	144
683.431	144
683.755	149
684.079	141
684.402	145
684.726	150
685.05	142
685.372	143
685.696	155.5
686.02	147
686.343	145.5
686.667	137.5
686.989	135
687.313	140
687.636	133
687.959	143
688.282	141.5
688.604	145
688.928	140.5
689.25	143
689.574	149.5
689.896	135
690.218	135.5
690.542	137.5
690.864	136
691.186	136.5
691.508	140
691.83	141.5
692.153	140
692.475	144
692.797	144.5
693.119	130.5
693.441	135.5
693.762	138.5
694.084	128.5
694.406	139
694.728	149
695.05	140.5
695.37	129.5
695.692	147
696.014	145.5
696.335	145
696.657	146
696.978	143.5
697.299	137.5
697.621	132.5
697.941	131
698.262	129.5
698.583	131
698.904	126.5
699.224	137.5
699.546	124
699.866	139
700.187	131.5
700.507	137
700.827	130
701.147	137.5
701.468	137.5
701.788	130
702.108	143
702.429	133.5
702.749	147
703.069	132
703.388	140
703.708	130.5
704.028	130.5
704.348	130.5
704.667	126
704.987	137.5
705.306	139
705.626	133.5
705.945	125
706.265	134.5
706.584	127.5
706.904	131
707.222	136
707.541	141
707.861	119.5
708.18	119.5
708.498	134.5
708.817	127.5
709.135	135
709.454	130
709.773	130.5
710.091	140
710.41	133
710.728	134.5
711.047	130.5
711.365	121
711.684	129
712.002	130
712.319	136.5
712.638	129.5
712.956	129
713.273	133.5
713.592	134.5
713.909	130
714.227	136.5
714.544	117.5
714.862	134
715.179	136
715.498	123.5
715.815	138
716.131	130.5
716.448	138
716.767	134
717.083	121.5
717.4	132
717.717	139
718.034	131.5
718.351	139.5
718.668	124.5
718.984	124.5
719.301	127.5
719.618	134
719.933	123
720.25	145.5
720.567	124
720.884	133.5
721.199	131
721.516	137
721.832	130.5
722.148	129
722.464	136.5
722.78	129
723.096	130.5
723.412	128.5
723.727	133
724.043	134
724.359	136.5
724.674	128.5
724.989	129.5
725.306	128.5
725.621	128.5
725.936	119
726.251	135
726.566	131
726.881	131.5
727.196	136.5
727.511	133
727.826	128.5
728.14	126.5
728.455	129
728.77	137.5
729.085	126
729.399	127.5
729.714	129
730.029	124.5
730.342	119.5
730.657	124
730.971	135
731.286	128.5
731.599	124
731.913	123
732.228	127
732.541	122
732.855	132.5
733.17	124
733.483	119
733.797	140.5
734.11	119
734.423	124.5
734.737	132.5
735.05	129
735.364	122
735.677	128
735.99	120.5
736.304	116
736.617	123.5
736.929	128.5
737.242	126
737.556	118.5
737.868	126
738.181	134
738.493	115.5
738.806	120
739.119	120.5
739.431	121
739.743	125.5
740.056	124.5
740.368	121.5
740.68	115
740.993	125
741.305	117.5
741.616	125.5
741.928	126
742.24	131
742.552	129
742.863	125
743.175	124.5
743.487	125
743.798	119.5
744.11	129
744.422	125.5
744.733	117.5
745.045	126.5
745.355	122.5
745.667	114.5
745.978	118.5
746.289	122
746.6	128.5
746.91	121
747.222	127
747.532	111.5
747.843	121.5
748.154	127
748.464	118
748.775	126.5
749.085	115
749.395	130
749.705	121
750.017	122
750.327	118.5
750.637	117
750.947	114.5
751.257	119.5
751.567	132
751.877	111.5
752.187	123
752.495	113.5
752.805	118.5
753.115	124.5
753.425	122.5
753.734	128.5
754.044	124.5
754.353	128.5
754.662	121.5
754.972	120
755.28	121.5
755.59	122.5
755.899	117.5
756.207	123.5
756.517	119
756.825	126.5
757.134	115.5
757.443	128.5
757.752	124
758.06	120
758.368	117.5
758.677	117
758.985	114.5
759.293	127
759.602	118
759.91	128
760.218	125
760.526	115.5
760.833	116.5
761.142	122
761.45	123
761.758	114
762.065	119.5
762.373	123
762.68	121
762.988	129
763.295	119
763.603	116.5
763.91	127.5
764.218	120
764.525	110
764.831	118
765.138	127
765.446	128.5
765.753	116.5
766.059	116
766.366	123.5
766.673	128
766.979	118
767.286	119.5
767.593	122.5
767.899	115
768.206	118.5
768.512	122.5
768.818	119.5
769.124	114
769.431	126.5
769.736	114
770.042	117
770.349	121
770.654	119.5
770.96	116.5
771.265	125
771.572	120.5
771.877	110.5
772.182	110.5
772.488	121.5
772.794	112
773.099	119
773.404	115
773.71	121
774.015	127
774.32	117
774.625	107
774.93	110
775.235	130.5
775.54	119.5
775.845	114
776.148	122
776.453	120
776.758	123
777.063	113.5
777.366	123.5
777.671	114
777.976	109
778.279	111.51
778.584	114.012
778.888	127.475
779.192	119.485
779.496	109.54
779.801	120.974
780.104	118.481
780.407	116.304
780.712	116.951
781.015	109.193
781.319	117.235
781.622	111.279
781.925	130.84
782.229	123.927
782.532	114.489
782.835	119.211
783.138	118.459
783.442	115.693
783.745	114.426
784.048	108.713
784.351	119.833
784.653	110.305
784.956	118.899
785.26	122.286
785.561	111.527
785.865	117.838
786.168	121.127
786.469	124.313
786.773	117.806
787.074	118.72
787.376	115.374
787.679	112.166
787.981	118.445
788.283	122.48
788.586	122.608
788.887	120.833
789.189	116.592
789.491	106.605
789.792	113.545
790.094	110.894
790.396	113.38
790.697	118.675
790.999	119.829
791.3	121.203
791.602	110.681
791.903	113.16
792.204	113.771
792.505	110.753
792.807	113.357
793.107	110.813
793.408	110.812
793.71	115.469
794.01	115.317
794.311	113.169
794.611	109.162
794.913	111.868
795.213	115.988
795.513	120.067
795.814	111.781
796.114	112.111
796.414	115.497
796.714	116.849
797.014	115.375
797.314	115.898
797.616	114.977
797.916	108.269
798.216	112.823
798.514	125.829
798.814	107.462
799.114	116.777
799.414	119.839
799.714	120.566
800.014	112.461
800.312	112.108
800.612	120.274
800.912	116.091
801.21	110.458
801.51	112.776
801.809	112.276
802.108	113.513
802.407	118.85
802.705	114.129
803.005	118.767
803.303	116.629
803.602	116.455
803.901	115.692
804.2	114.569
804.498	111.769
804.797	118.64
805.095	115.708
805.393	114.216
805.691	114.874
805.99	111.654
806.288	110.406
806.586	116.061
806.885	115.795
807.183	104.46
807.48	113.064
807.778	111.775
808.076	109.091
808.373	105.604
808.671	108.718
808.969	116.652
809.266	111.779
809.564	107.62
809.861	116.25
810.158	112.341
810.456	108.458
810.753	116.882
811.049	114.911
811.347	114.053
811.644	109.713
811.941	114.226
812.237	120.814
812.534	114.584
812.831	115.076
813.127	113.787
813.424	109.163
813.721	115.129
814.017	113.036
814.314	111.413
814.61	111.245
814.906	115.784
815.202	115.727
815.499	110.347
815.794	108.789
816.091	111.334
816.387	108.143
816.682	109.822
816.979	110.431
817.274	110.164
817.569	117.061
817.865	110.006
818.161	112.004
818.456	106.601
818.752	108.522
819.047	111.454
819.342	111.162
819.637	108.522
819.932	114.714
820.227	110.343
820.522	112.102
820.817	115.366
821.112	113.334
821.407	116.16
821.702	110.704
821.997	116.318
822.291	108.476
822.586	108.874
822.881	108.489
823.175	110.907
823.469	107.677
823.764	112.312
824.057	113.183
824.352	109.701
824.646	112.41
824.941	111.49
825.234	116.526
825.528	115.329
825.822	118.284
826.116	107.75
826.409	114.102
826.703	114.119
826.996	114.093
827.289	112.502
827.583	115.872
827.876	112.91
828.169	110.769
828.463	112.441
828.756	110.625
829.049	110.891
829.343	113.538
829.636	112.885
829.928	109.025
830.221	113.219
830.515	113.35
830.807	111.625
831.1	109.544
831.392	114.854
831.685	105.951
831.977	111.041
832.27	105.493
832.562	111.396
832.855	106.481
833.147	107.769
833.439	109.435
833.73	110.151
834.022	108.442
834.315	116.441
834.607	111.085
834.899	110.534
835.19	110.3
835.482	107.736
835.774	109.217
836.064	110.212
836.356	108.548
836.648	113.986
836.939	112.917
837.231	110.733
837.521	109.926
837.813	105.474
838.104	112.137
838.395	104.725
838.686	113.968
838.977	111.473
839.268	111.409
839.558	109.892
839.849	110.243
840.14	103.851
840.43	105.342
840.721	105.21
841.011	111.813
841.302	109.652
841.592	113.552
841.882	112.393
842.173	108.961
842.463	108.229
842.753	111.165
843.043	111.977
843.333	110.753
843.622	114.945
843.912	111.486
844.202	113.57
844.492	109.58
844.78	108.917
845.07	107.975
845.36	105.021
845.649	108.969
845.939	107.764
846.228	110.331
846.518	112.694
846.806	104.233
847.095	112.707
847.385	107.35
847.673	102.37
847.962	107.608
848.25	112.309
848.54	111.074
848.829	109.566
849.117	108.241
849.406	111.121
849.694	111.154
849.983	110.626
850.271	113.286
850.558	110.291
850.847	111.698
851.135	104.133
851.424	120.664
851.712	112.297
851.999	110.489
852.287	112.944
852.574	111.678
852.863	106.695
853.151	106.145
853.438	111.174
853.725	110.16
854.013	107.181
854.3	109.427
854.587	107.374
854.876	111.637
855.163	104.738
855.449	105.406
855.736	111.841
856.023	112.437
856.31	107.329
856.597	107.548
856.884	110.795
857.171	112.161
857.458	110.893
857.744	108.061
858.031	103.859
858.318	111.404
858.603	107.439
858.89	120.859
859.177	111.285
859.462	109.396
859.749	107.631
860.036	113.122
860.321	116.877
860.608	113.91
860.893	106.868
861.179	103.916
861.465	107.451
861.751	104.33
862.036	106.669
862.321	113.403
862.608	108.473
862.893	109.512
863.179	115.172
863.464	111.464
863.749	108.327
864.034	105.909
864.32	107.466
864.605	109.771
864.889	108.573
865.174	108.753
865.459	113.05
865.744	107.989
866.028	112.032
866.313	111.72
866.598	109.535
866.882	117.368
867.167	122.674
867.451	116.18
867.736	108.366
868.02	105.272
868.304	107.139
868.589	109.905
868.872	109.675
869.156	110.327
869.44	112.243
869.725	111.078
870.009	108.448
870.292	108.436
870.576	112.607
870.601	113
870.908	101
871.214	110
871.522	104.5
871.828	112
872.135	108.5
872.441	108
872.747	109.5
873.053	101
873.36	113
873.666	111.5
873.972	108.5
874.279	113
874.585	116
874.891	104
875.196	107.5
875.502	109.5
875.808	105
876.113	103
876.419	109
876.725	110
877.03	110.5
877.336	102
877.641	110
877.947	119
878.252	112.5
878.557	107.5
878.863	112.5
879.167	108.5
879.472	111
879.777	102
880.083	105.5
880.387	110
880.692	104
880.997	102
881.301	116
881.606	106
881.911	113.5
882.215	100.5
882.52	115.5
882.824	109
883.128	106.5
883.432	120.5
883.737	108
884.041	112.5
884.344	116
884.649	108.5
884.952	109.5
885.256	117
885.559	101.5
885.864	120
886.167	104
886.471	112.5
886.774	102
887.077	107.5
887.382	115.5
887.685	101
887.988	117
888.291	110.5
888.594	110.5
888.897	100.5
889.2	105.5
889.503	116
889.806	101.5
890.109	103.5
890.412	103
890.714	110
891.017	104
891.32	114.5
891.623	109.5
891.925	108.5
892.227	116.5
892.53	112.5
892.832	108
893.135	103
893.436	103
893.739	119
894.04	107
894.343	109
894.644	106.5
894.946	111.5
895.248	109
895.55	111.5
895.851	106
896.153	106
896.454	97
896.757	106
897.058	114.5
897.359	110
897.66	101.5
897.962	110.5
898.263	106.5
898.563	112.5
898.864	99
899.165	107.5
899.466	106
899.768	109
900.068	105
900.369	109.5
900.67	109
900.97	107.5
901.271	114
901.571	112.5
901.872	112
902.172	117
902.471	104.5
902.772	112
903.072	111.5
903.372	114
903.673	109
903.973	114
904.272	110.5
904.572	106
904.872	103
905.171	102
905.471	99
905.77	105.5
906.07	114.5
906.37	107.5
906.669	114
906.969	101.5
907.268	103.5
907.567	101.5
907.866	108.5
908.166	110
908.464	115.5
908.763	100.5
909.061	109
909.361	111
909.659	107
909.958	118.5
910.257	102
910.556	110
910.854	102
911.152	115
911.452	114.5
911.75	107
912.048	109.5
912.346	107
912.644	113.5
912.942	113
913.24	111.5
913.538	103.5
913.836	107
914.134	108
914.432	95
914.729	106.5
915.027	116
915.324	114
915.622	114
915.92	111.5
916.216	108
916.514	120
916.812	110
917.108	116
917.406	112.5
917.703	113
917.999	108
918.297	106
918.593	107.5
918.89	118
919.188	117
919.484	116.5
919.78	104
920.077	121.5
920.373	112.5
920.669	116.5
920.966	118
921.262	107.5
921.559	109
921.855	110
922.151	109.5
922.447	101.5
922.744	112
923.04	115.5
923.335	117
923.631	120.5
923.927	111
924.222	111
924.518	107.5
924.813	117
925.109	109.5
925.404	125
925.701	109.5
925.995	107
926.29	117.5
926.586	114
926.881	108
927.176	118
927.471	124
927.767	107
928.061	131.5
928.356	126.5
928.651	113
928.945	117.5
929.24	126.5
929.535	127.5
929.829	124
930.123	120
930.417	118.5
930.712	129.5
931.007	123
931.3	137.5
931.595	127
931.889	134.5
932.182	132.5
932.477	134.5
932.77	137
933.065	140
933.358	146.5
933.652	138.5
933.946	141
934.239	139.5
934.532	140.5
934.826	144.5
935.12	154
935.413	139.5
935.706	151
935.999	138.5
936.292	145.5
936.585	155.5
936.878	166
937.171	140
937.464	143
937.757	147
938.05	158.5
938.342	151
938.635	154.5
938.928	146
939.221	154
939.512	156
939.805	153.5
940.097	160.5
940.39	147.5
940.681	157.5
940.974	152
941.266	157.5
941.557	166.5
941.85	155
942.142	153.5
942.433	152.5
942.725	154
943.016	164
943.309	151.5
943.6	155.5
943.892	153
944.183	149.5
944.475	155.5
944.766	155.5
945.056	144
945.348	157
945.639	145
945.93	150.5
946.222	150.5
946.512	154
946.803	149.5
947.093	150.5
947.384	151
947.676	142
947.966	147.5
948.256	157.5
948.547	154
948.837	152
949.128	144
949.418	146
949.708	134
949.998	145.5
950.289	144.5
950.579	144.5
950.869	150.5
951.159	148
951.448	139
951.738	147.5
952.028	147
952.318	149
952.608	137
952.896	133
953.186	141
953.476	148
953.765	144
954.054	142.5
954.343	150
954.633	146
954.922	151.5
955.211	138
955.5	139
955.789	142
956.078	144
956.366	136
956.656	151
956.944	139
957.232	146
957.52	151.5
957.81	141.5
958.098	141
958.386	143
958.675	150.5
958.963	143
959.251	142.5
959.539	148
959.827	135.5
960.114	133.5
960.402	149
960.691	146
960.979	136.5
961.267	129
961.554	137
961.842	144
962.128	145.5
962.417	145.5
962.703	139
962.991	137.5
963.278	141.5
963.566	135
963.853	121
964.139	131.5
964.427	136.5
964.714	140
965.001	138.5
965.287	143.5
965.574	138
965.861	137
966.147	131.5
966.434	134.5
966.72	142
967.007	138
967.294	136
967.58	144
967.867	145.5
968.153	128.5
968.438	147
968.725	134.5
969.011	142.5
969.297	140
969.583	131.5
969.868	135
970.155	134.5
970.44	139.5
970.726	138
971.011	141.5
971.296	135.5
971.583	129
971.868	140
972.153	147
972.438	134.5
972.723	143
973.009	134.5
973.294	144.5
973.579	143.5
973.864	129.5
974.148	138.5
974.433	131
974.718	135.5
975.003	144.5
975.288	132
975.573	140.5
975.856	120
976.141	137
976.426	132
976.71	135
976.995	132
977.278	138
977.563	124
977.846	128
978.13	127
978.415	137.5
978.698	127
978.982	122
979.267	134
979.55	121
979.833	133
980.117	134
980.4	135
980.684	126
980.967	132.5
981.25	122.5
981.534	132
981.817	137
982.101	141.5
982.384	124
982.666	117.5
982.949	114.5
983.233	124
983.515	131
983.798	128.5
984.08	122
984.363	125.5
984.645	129.5
984.928	118.5
985.21	115
985.493	117
985.775	122.5
986.057	124.5
986.34	119.5
986.622	125
986.904	114
987.186	110.5
987.468	115
987.75	119.5
988.031	116
988.313	116
988.595	117.5
988.877	121.5
989.158	119
989.44	109.5
989.721	111
990.002	113
990.284	120
990.564	124
990.846	109
991.128	106.5
991.408	111.5
991.69	101.5
991.97	108.5
992.251	103
992.532	108.5
992.812	121.5
993.093	101.5
993.374	97.5
993.655	101.5
993.935	99
994.215	110.5
994.495	109.5
994.776	108.5
995.056	102
995.336	111.5
995.616	103
995.896	107
996.177	110
996.457	106.5
996.737	98.5
997.016	103
997.296	108
997.576	107.5
997.855	107
998.135	110
998.414	102.5
998.694	100.5
998.973	100
999.253	92.5
999.531	102
999.811	106